#%I [A]	B [mT]
1.03	 73e-3
1.89	124e-3
2.6	    166e-3
2.97	188e-3
3.86	248e-3
4.66	295e-3
5.05	319e-3
5.53	348e-3
6.06	381e-3
6.54	409e-3
7.1	    444e-3
7.5	    468e-3
8.06	500e-3
8.47	524e-3
8.96	549e-3
9.5	    573e-3
9.95	594e-3
10.46	613e-3
